Frequency,Channel A,Channel B
(ms),(mV),(V)

0.00000000,84.35346000,-3.56483700
0.02000000,84.81483000,-3.54176900
0.04000000,85.29157000,-3.51870100
0.06000000,85.75294000,-3.49563200
0.08000000,86.22969000,-3.47225600
0.10000000,86.70644000,-3.44888000
0.12000000,87.18319000,-3.42550500
0.14000000,87.65993000,-3.40151300
0.16000000,88.15206000,-3.37783000
0.18000000,88.64419000,-3.35353100
0.19999999,89.12093000,-3.32892500
0.21999999,89.62844000,-3.30493400
0.23999999,90.15132000,-3.28063500
0.25999999,90.65882000,-3.25602900
0.27999999,91.15096000,-3.23142200
0.29999999,91.64307000,-3.20650800
0.31999999,92.16597000,-3.18128700
0.33999999,92.68885000,-3.15637300
0.35999999,93.21173000,-3.13115100
0.37999999,93.73462000,-3.10562300
0.39999999,94.25750000,-3.07978600
0.41999999,94.79576000,-3.05425700
0.43999999,95.33403000,-3.02811300
0.45999999,95.85691000,-3.00227600
0.47999999,96.37980000,-2.97643900
0.49999999,96.91805000,-2.94968000
0.51999999,97.47169000,-2.92353600
0.53999999,98.02534000,-2.89708400
0.55999999,98.57899000,-2.87032500
0.57999999,99.13262000,-2.84387300
0.59999998,99.68626000,-2.81680600
0.61999998,100.23990000,-2.78973900
0.63999998,100.82430000,-2.76267200
0.65999998,101.39330000,-2.73560500
0.67999998,101.94700000,-2.70823100
0.69999998,102.51600000,-2.68085600
0.71999998,103.10040000,-2.65348200
0.73999998,103.65400000,-2.62549200
0.75999998,104.19230000,-2.59781000
0.77999998,104.77670000,-2.56982000
0.79999998,105.36110000,-2.54213800
0.81999998,105.93010000,-2.51414900
0.83999998,106.49910000,-2.48585100
0.85999998,107.06820000,-2.45786200
0.87999998,107.63720000,-2.42987200
0.89999998,108.20620000,-2.40095900
0.91999998,108.80600000,-2.37235500
0.93999998,109.40570000,-2.34344200
0.95999998,110.00550000,-2.31453000
0.97999998,110.60530000,-2.28592500
0.99999997,111.18970000,-2.25701300
1.01999997,111.78950000,-2.22810100
1.03999997,112.40460000,-2.19888000
1.05999997,112.97370000,-2.16935300
1.07999997,113.60420000,-2.14013300
1.09999997,114.18860000,-2.11060500
1.11999997,114.80380000,-2.08107800
1.13999997,115.43430000,-2.05155000
1.15999997,116.04950000,-2.02171500
1.17999997,116.66460000,-1.99188000
1.19999997,117.27980000,-1.96173700
1.21999997,117.91030000,-1.93190200
1.23999997,118.52550000,-1.90175900
1.25999997,119.15600000,-1.87161700
1.27999997,119.78650000,-1.84178100
1.29999997,120.41710000,-1.81133100
1.31999997,121.06300000,-1.78118800
1.33999997,121.69350000,-1.75104600
1.35999997,122.32410000,-1.72028800
1.37999997,122.95460000,-1.69014500
1.39999996,123.60050000,-1.65938700
1.41999996,124.23100000,-1.62893700
1.43999996,124.86160000,-1.59817900
1.45999996,125.50750000,-1.56711400
1.47999996,126.12270000,-1.53666300
1.49999996,126.76860000,-1.50559800
1.51999996,127.41450000,-1.47484000
1.53999996,128.04500000,-1.44377500
1.55999996,128.67560000,-1.41240100
1.57999996,129.32150000,-1.38164400
1.59999996,129.96740000,-1.35027100
1.61999996,130.61330000,-1.31920500
1.63999996,131.25920000,-1.28814000
1.65999996,131.90510000,-1.25645900
1.67999996,132.55110000,-1.22539400
1.69999996,133.18160000,-1.19402100
1.71999996,133.81210000,-1.16264800
1.73999996,134.45800000,-1.13096700
1.75999996,135.10390000,-1.09990200
1.77999996,135.74990000,-1.06852900
1.79999995,136.39580000,-1.03684800
1.81999995,137.04170000,-1.00578200
1.83999995,137.68760000,-0.97410190
1.85999995,138.34890000,-0.94272880
1.87999995,139.01020000,-0.91135590
1.89999995,139.65610000,-0.87967520
1.91999995,140.28670000,-0.84830220
1.93999995,140.93260000,-0.81662150
1.95999995,141.59390000,-0.78524850
1.97999995,142.22440000,-0.75356790
1.99999995,142.87030000,-0.72219490
2.01999995,143.53160000,-0.69082190
2.03999995,144.17750000,-0.65944880
2.05999995,144.82340000,-0.62838340
2.07999995,145.46940000,-0.59670280
2.09999995,146.14600000,-0.56502220
2.11999995,146.79190000,-0.53395670
2.13999995,147.45320000,-0.50227610
2.15999995,148.09920000,-0.47059550
2.17999994,148.76040000,-0.43891490
2.19999994,149.43710000,-0.40754180
2.21999994,150.09840000,-0.37555360
2.23999994,150.71360000,-0.34418060
2.25999994,151.35950000,-0.31280760
2.27999994,151.99000000,-0.28081940
2.29999994,152.63590000,-0.24913880
2.31999994,153.28190000,-0.21745820
2.33999994,153.92780000,-0.18577760
2.35999994,154.60440000,-0.15440450
2.37999994,155.26570000,-0.12272390
2.39999994,155.89630000,-0.09104331
2.41999994,156.58830000,-0.05905512
2.43999994,157.24960000,-0.02768209
2.45999994,157.91090000,0.00369095
2.47999994,158.55680000,0.03506397
2.49999994,159.20270000,0.06674459
2.51999994,159.84860000,0.09873278
2.53999994,160.49460000,0.13010580
2.55999994,161.15590000,0.16178640
2.57999993,161.80180000,0.19315940
2.59999993,162.44770000,0.22484010
2.61999993,163.09360000,0.25682820
2.63999993,163.73950000,0.28850890
2.65999993,164.38540000,0.32018950
2.67999993,165.03140000,0.35187010
2.69999993,165.67730000,0.38385830
2.71999993,166.32320000,0.41523130
2.73999993,166.96910000,0.44691190
2.75999993,167.59960000,0.47890010
2.77999993,168.24560000,0.51027310
2.79999993,168.89150000,0.54164610
2.81999993,169.52200000,0.57332680
2.83999993,170.18330000,0.60469980
2.85999993,170.84460000,0.63638040
2.87999993,171.49050000,0.66775350
2.89999993,172.15180000,0.69912650
2.91999993,172.79770000,0.73049950
2.93999993,173.42830000,0.76218010
2.95999993,174.05880000,0.79355310
2.97999992,174.68930000,0.82492620
2.99999992,175.33530000,0.85660680
3.01999992,175.96580000,0.88767220
3.03999992,176.61170000,0.91873770
3.05999992,177.24220000,0.94980310
3.07999992,177.90350000,0.98086860
3.09999992,178.53410000,1.01224200
3.11999992,179.19540000,1.04300000
3.13999992,179.82590000,1.07437300
3.15999992,180.48720000,1.10543800
3.17999992,181.13310000,1.13650300
3.19999992,181.76360000,1.16756900
3.21999992,182.39420000,1.19832700
3.23999992,183.00930000,1.22939200
3.25999992,183.62450000,1.26045800
3.27999992,184.25500000,1.29152300
3.29999992,184.87020000,1.32228100
3.31999992,185.48530000,1.35273100
3.33999992,186.11590000,1.38379700
3.35999992,186.74640000,1.41424700
3.37999991,187.37700000,1.44500500
3.39999991,188.02290000,1.47545500
3.41999991,188.65340000,1.50590600
3.43999991,189.28390000,1.53635600
3.45999991,189.91450000,1.56649900
3.47999991,190.54500000,1.59725600
3.49999991,191.16020000,1.62770700
3.51999991,191.79070000,1.65784900
3.53999991,192.40590000,1.68830000
3.55999991,193.03640000,1.71844200
3.57999991,193.63620000,1.74889300
3.59999991,194.26670000,1.77903500
3.61999991,194.89720000,1.80917800
3.63999991,195.52780000,1.83962800
3.65999991,196.14290000,1.86946400
3.67999991,196.75810000,1.89991400
3.69999991,197.37330000,1.92974900
3.71999991,198.00380000,1.95958400
3.73999991,198.61900000,1.98972700
3.75999991,199.24950000,2.01956200
3.77999990,199.84930000,2.04939700
3.79999990,200.46440000,2.07892500
3.81999990,201.04880000,2.10845200
3.83999990,201.64860000,2.13798000
3.85999990,202.24840000,2.16750700
3.87999990,202.83280000,2.19703500
3.89999990,203.46330000,2.22625500
3.91999990,204.04770000,2.25516700
3.93999990,204.64750000,2.28438700
3.95999990,205.24730000,2.31330000
3.97999990,205.86240000,2.34190400
3.99999990,206.46220000,2.37112500
4.01999990,207.04660000,2.39942200
4.03999990,207.64640000,2.42833400
4.05999990,208.23080000,2.45693900
4.07999990,208.81520000,2.48523600
4.09999990,209.39960000,2.51353400
4.11999990,209.96860000,2.54183100
4.13999990,210.55300000,2.56982000
4.15999989,211.10670000,2.59781000
4.17999989,211.67570000,2.62549200
4.19999989,212.24470000,2.65317400
4.21999989,212.81370000,2.68054900
4.23999989,213.38270000,2.70792300
4.25999989,213.95180000,2.73529800
4.27999989,214.50540000,2.76236500
4.29999989,215.07440000,2.78912400
4.31999989,215.61270000,2.81619100
4.33999989,216.15090000,2.84295000
4.35999989,216.68920000,2.86971000
4.37999989,217.24280000,2.89616100
4.39999989,217.79650000,2.92261300
4.41999989,218.33480000,2.94906500
4.43999989,218.87300000,2.97551700
4.45999989,219.39590000,3.00166100
4.47999989,219.91880000,3.02749800
4.49999989,220.45700000,3.05333400
4.51999989,220.97990000,3.07886300
4.53999989,221.50280000,3.10377700
4.55999988,222.02570000,3.12930600
4.57999988,222.54860000,3.15452800
4.59999988,223.05610000,3.17944100
4.61999988,223.57900000,3.20435500
4.63999988,224.07110000,3.22896100
4.65999988,224.56320000,3.25356800
4.67999988,225.05540000,3.27817400
4.69999988,225.54750000,3.30247300
4.71999988,226.07040000,3.32646400
4.73999988,226.54710000,3.35076300
4.75999988,227.05460000,3.37444600
4.77999988,227.54670000,3.39813000
4.79999988,228.03890000,3.42181300
4.81999988,228.51560000,3.44518900
4.83999988,229.00770000,3.46856500
4.85999988,229.49990000,3.49194100
4.87999988,229.97660000,3.51470200
4.89999988,230.45340000,3.53746300
4.91999988,230.91470000,3.56022400
4.93999988,231.37610000,3.58298500
4.95999987,231.83750000,3.60543800
4.97999987,232.28350000,3.62758400
4.99999987,232.72940000,3.65034500
5.01999987,233.17540000,3.67218300
5.03999987,233.60600000,3.69402100
5.05999987,234.05200000,3.71555100
5.07999987,234.52880000,3.73708200
5.09999987,234.95940000,3.75861200
5.11999987,235.39000000,3.77983500
5.13999987,235.83600000,3.80136500
5.15999987,236.26660000,3.82228100
5.17999987,236.72800000,3.84288900
5.19999987,237.15860000,3.86349700
5.21999987,237.58920000,3.88410400
5.23999987,238.01980000,3.90471200
5.25999987,238.45040000,3.92470500
5.27999987,238.85030000,3.94500500
5.29999987,239.28090000,3.96499800
5.31999987,239.71150000,3.98499000
5.33999987,240.11130000,4.00498300
5.35999986,240.49580000,4.02497500
5.37999986,240.88030000,4.04435300
5.39999986,241.29550000,4.06373000
5.41999986,241.68000000,4.08310800
5.43999986,242.06450000,4.10217800
5.45999986,242.44890000,4.12094000
5.47999986,242.84880000,4.13939500
5.49999986,243.21790000,4.15784900
5.51999986,243.61770000,4.17630400
5.53999986,244.00220000,4.19445100
5.55999986,244.37130000,4.21259800
5.57999986,244.72500000,4.23043800
5.59999986,245.10950000,4.24858500
5.61999986,245.46320000,4.26611700
5.63999986,245.81690000,4.28364900
5.65999986,246.17060000,4.30087400
5.67999986,246.53970000,4.31809800
5.69999986,246.90880000,4.33563000
5.71999986,247.26250000,4.35254700
5.73999985,247.60090000,4.36915600
5.75999985,247.90840000,4.38545800
5.77999985,248.24680000,4.40206700
5.79999985,248.56970000,4.41836900
5.81999985,248.87730000,4.43436200
5.83999985,249.20030000,4.45035600
5.85999985,249.53860000,4.46604300
5.87999985,249.89230000,4.48173000
5.89999985,250.19990000,4.49710900
5.91999985,250.50750000,4.51248700
5.93999985,250.79970000,4.52755900
5.95999985,251.10730000,4.54232300
5.97999985,251.43020000,4.55739400
5.99999985,251.73780000,4.57215800
6.01999985,252.03000000,4.58599900
6.03999985,252.30680000,4.59984000
6.05999985,252.58360000,4.61368100
6.07999985,252.86050000,4.62752200
6.09999985,253.12190000,4.64105600
6.11999985,253.39870000,4.65458900
6.13999984,253.67550000,4.66750700
6.15999984,253.93700000,4.68011800
6.17999984,254.21380000,4.69272900
6.19999984,254.45990000,4.70564700
6.21999984,254.72130000,4.71795000
6.23999984,254.98280000,4.73025400
6.25999984,255.21340000,4.74224900
6.27999984,255.44410000,4.75393700
6.29999984,255.70560000,4.76531700
6.31999984,255.93620000,4.77700500
6.33999984,256.13620000,4.78838600
6.35999984,256.35150000,4.79945900
6.37999984,256.56680000,4.81053200
6.39999984,256.79750000,4.82129700
6.41999984,256.98200000,4.83175400
6.43999984,257.18190000,4.84221200
6.45999984,257.39720000,4.85297700
6.47999984,257.61260000,4.86312800
6.49999984,257.82790000,4.87327800
6.51999984,258.02780000,4.88281300
6.53999983,258.21230000,4.89234700
6.55999983,258.41230000,4.90157500
6.57999983,258.58150000,4.91080200
6.59999983,258.78140000,4.91972200
6.61999983,258.93520000,4.92864200
6.63999983,259.10430000,4.93694600
6.65999983,259.27350000,4.94494300
6.67999983,259.44260000,4.95294000
6.69999983,259.59650000,4.96093800
6.71999983,259.75020000,4.96862700
6.73999983,259.90400000,4.97631600
6.75999983,260.05780000,4.98369800
6.77999983,260.19620000,4.99077300
6.79999983,260.33460000,4.99784700
6.81999983,260.48840000,5.00461300
6.83999983,260.64220000,5.01107300
6.85999983,260.76520000,5.01753200
6.87999983,260.88830000,5.02399100
6.89999983,261.01130000,5.02983500
6.91999983,261.13430000,5.03567900
6.93999982,261.24200000,5.04152300
6.95999982,261.34960000,5.04706000
6.97999982,261.44190000,5.05228800
6.99999982,261.56490000,5.05751700
7.01999982,261.65720000,5.06243800
7.03999982,261.74950000,5.06705200
7.05999982,261.84180000,5.07197300
7.07999982,261.94940000,5.07658700
7.09999982,262.04170000,5.08089300
7.11999982,262.11860000,5.08489200
7.13999982,262.18010000,5.08889000
7.15999982,262.25700000,5.09288800
7.17999982,262.33390000,5.09658000
7.19999982,262.39540000,5.09996300
7.21999982,262.44160000,5.10303900
7.23999982,262.48770000,5.10611500
7.25999982,262.54920000,5.10888300
7.27999982,262.59530000,5.11103600
7.29999982,262.62610000,5.11318900
7.31999982,262.64150000,5.11534200
7.33999981,262.67220000,5.11718800
7.35999981,262.70300000,5.11872500
7.37999981,262.73370000,5.12026300
7.39999981,262.76450000,5.12118600
7.41999981,262.77990000,5.12210800
7.43999981,262.77990000,5.12303200
7.45999981,262.79530000,5.12333900
7.47999981,262.81060000,5.12364700
7.49999981,262.79530000,5.12395400
7.51999981,262.81060000,5.12364700
7.53999981,262.79530000,5.12333900
7.55999981,262.77990000,5.12303200
7.57999981,262.76450000,5.12241600
7.59999981,262.74910000,5.12149300
7.61999981,262.73370000,5.12057100
7.63999981,262.70300000,5.11934000
7.65999981,262.65690000,5.11749500
7.67999981,262.59530000,5.11595700
7.69999981,262.54920000,5.11380400
7.71999980,262.48770000,5.11103600
7.73999980,262.41080000,5.10826800
7.75999980,262.36470000,5.10550000
7.77999980,262.30310000,5.10242400
7.79999980,262.24160000,5.09904000
7.81999980,262.18010000,5.09565700
7.83999980,262.10320000,5.09227300
7.85999980,262.02630000,5.08827500
7.87999980,261.93400000,5.08427700
7.89999980,261.84180000,5.07997000
7.91999980,261.74950000,5.07566500
7.93999980,261.65720000,5.07043600
7.95999980,261.54960000,5.06551500
7.97999980,261.42650000,5.06028600
7.99999980,261.30350000,5.05474900
8.01999980,261.14970000,5.04890500
8.03999980,261.02670000,5.04275300
8.05999980,260.90360000,5.03660200
8.07999980,260.78060000,5.03014300
8.09999980,260.65760000,5.02337600
8.11999979,260.48840000,5.01660900
8.13999979,260.31920000,5.00953500
8.15999979,260.16550000,5.00246000
8.17999979,259.99630000,4.99477100
8.19999979,259.81170000,4.98708200
8.21999979,259.65800000,4.97939200
8.23999979,259.45800000,4.97139500
8.25999979,259.30420000,4.96309000
8.27999979,259.10430000,4.95478600
8.29999979,258.91980000,4.94648100
8.31999979,258.73520000,4.93756200
8.33999979,258.53530000,4.92864200
8.35999979,258.33540000,4.91910600
8.37999979,258.16620000,4.90957200
8.39999979,257.96630000,4.90003700
8.41999979,257.78170000,4.89050200
8.43999979,257.58180000,4.88065900
8.45999979,257.35110000,4.87050900
8.47999979,257.13580000,4.86066700
8.49999979,256.90510000,4.85051700
8.51999978,256.70520000,4.83975100
8.53999978,256.47450000,4.82929400
8.55999978,256.25920000,4.81883600
8.57999978,256.01320000,4.80807100
8.59999978,255.78250000,4.79699800
8.61999978,255.55180000,4.78592500
8.63999978,255.30570000,4.77454500
8.65999978,255.07500000,4.76285600
8.67999978,254.82900000,4.75116900
8.69999978,254.58290000,4.73917300
8.71999978,254.32150000,4.72717800
8.73999978,254.06000000,4.71487500
8.75999978,253.79860000,4.70257100
8.77999978,253.52180000,4.68996000
8.79999978,253.24490000,4.67704200
8.81999978,252.96810000,4.66412400
8.83999978,252.69130000,4.65120600
8.85999978,252.42990000,4.63798000
8.87999978,252.15300000,4.62475400
8.89999978,251.86080000,4.61122000
8.91999977,251.56860000,4.59768700
8.93999977,251.27640000,4.58415400
8.95999977,250.99960000,4.57031300
8.97999977,250.70740000,4.55585600
8.99999977,250.43060000,4.54109200
9.01999977,250.10760000,4.52663600
9.03999977,249.80000000,4.51187200
9.05999977,249.49250000,4.49710900
9.07999977,249.16950000,4.48234500
9.09999977,248.84660000,4.46696600
9.11999977,248.50820000,4.45158700
9.13999977,248.18530000,4.43620800
9.15999977,247.84690000,4.42052200
9.17999977,247.52400000,4.40452800
9.19999977,247.20100000,4.38822600
9.21999977,246.87810000,4.37223100
9.23999977,246.53970000,4.35593000
9.25999977,246.20140000,4.33932100
9.27999977,245.87840000,4.32271100
9.29999977,245.54010000,4.30548700
9.31999976,245.20180000,4.28857000
9.33999976,244.84800000,4.27134600
9.35999976,244.47890000,4.25412100
9.37999976,244.10980000,4.23628200
9.39999976,243.77150000,4.21875000
9.41999976,243.41780000,4.20121800
9.43999976,243.04870000,4.18337900
9.45999976,242.69500000,4.16461600
9.47999976,242.32590000,4.14616200
9.49999976,241.95680000,4.12801400
9.51999976,241.55700000,4.10925200
9.53999976,241.17250000,4.09018200
9.55999976,240.78800000,4.07111200
9.57999976,240.38810000,4.05204200
9.59999976,239.98830000,4.03266500
9.61999976,239.58840000,4.01298000
9.63999976,239.18860000,3.99329500
9.65999976,238.78870000,3.97391700
9.67999976,238.38890000,3.95392500
9.69999975,237.97360000,3.93331700
9.71999975,237.57380000,3.91301700
9.73999975,237.15860000,3.89271600
9.75999975,236.72800000,3.87210900
9.77999975,236.31270000,3.85119300
9.79999975,235.89750000,3.83027800
9.81999975,235.46690000,3.80936300
9.83999975,235.03630000,3.78783200
9.85999975,234.60570000,3.76660900
9.87999975,234.15970000,3.74507900
9.89999975,233.71370000,3.72354800
9.91999975,233.28310000,3.70140300
9.93999975,232.82170000,3.67956400
9.95999975,232.34500000,3.65711100
9.97999975,231.88360000,3.63465800
9.99999975,231.42220000,3.61220500
10.01999975,230.94550000,3.58975100
10.03999975,230.46870000,3.56729800
10.05999975,230.00740000,3.54423000
10.07999975,229.54600000,3.52116100
10.09999974,229.06930000,3.49809300
10.11999974,228.59250000,3.47441000
10.13999974,228.10040000,3.45103400
10.15999974,227.63900000,3.42765800
10.17999974,227.14690000,3.40366600
10.19999974,226.62400000,3.37998300
10.21999974,226.13190000,3.35629900
10.23999974,225.63980000,3.33200000
10.25999974,225.13220000,3.30770200
10.27999974,224.60940000,3.28309500
10.29999974,224.11720000,3.25818200
10.31999974,223.62510000,3.23357500
10.33999974,223.11760000,3.20866100
10.35999974,222.59470000,3.18313200
10.37999974,222.07180000,3.15821900
10.39999974,221.54900000,3.13330500
10.41999974,221.01070000,3.10777500
10.43999974,220.47240000,3.08163100
10.45999974,219.91880000,3.05579500
10.47999974,219.39590000,3.02965000
10.49999973,218.88840000,3.00381400
10.51999973,218.35010000,2.97736200
10.53999973,217.81190000,2.95060300
10.55999973,217.27360000,2.92415100
10.57999973,216.73540000,2.89769900
10.59999973,216.16630000,2.87094000
10.61999973,215.62810000,2.84418100
10.63999973,215.07440000,2.81742100
10.65999973,214.49000000,2.79004700
10.67999973,213.95180000,2.76298000
10.69999973,213.41350000,2.73560500
10.71999973,212.85990000,2.70792300
10.73999973,212.29080000,2.68054900
10.75999973,211.70640000,2.65286700
10.77999973,211.15280000,2.62487700
10.79999973,210.56840000,2.59719500
10.81999973,209.98400000,2.56889800
10.83999973,209.38420000,2.54090800
10.85999973,208.81520000,2.51291800
10.87999973,208.23080000,2.48462100
10.89999972,207.64640000,2.45663100
10.91999972,207.07740000,2.42833400
10.93999972,206.49300000,2.39972900
10.95999972,205.89320000,2.37112500
10.97999972,205.27800000,2.34221200
